counter,loop_timer,x_target,teensy_time,acceleration,position,pressure
0,1706192644.0401433,1,10649,-0.1266499999999997,0,0.0
19945,1706192644.055204,0.9933333333333333,10664,-0.1266499999999997,0,0.0
33732,1706192644.0704653,0.9866666666666666,10679,-0.1266499999999997,0,0.0
55868,1706192644.0861158,0.9799999999999999,10694,-0.1266499999999997,0,0.0
90271,1706192644.1011338,0.9733333333333332,10709,-0.1266499999999997,0,0.0
127437,1706192644.1174166,0.9666666666666665,10728,-0.1266499999999997,0,0.0
138601,1706192644.1360168,0.9599999999999997,10743,-0.11664999999999992,0,0.0
178800,1706192644.1517947,0.953333333333333,10757,-0.03664999999999985,0,0.0
237721,1706192644.1698654,0.9466666666666663,10773,1.05335,0,0.06837606837606838
280074,1706192644.18502,0.9399999999999996,10788,-0.09664999999999857,0,0.23687423687423687
306119,1706192644.2006822,0.9333333333333329,10803,-0.3766499999999997,0,0.46153846153846156
345474,1706192644.2181463,0.9266666666666662,10818,-0.08664999999999878,0,0.6349206349206349
377858,1706192644.2338982,0.9199999999999995,10833,-0.3966499999999993,0,0.9572649572649573
385908,1706192644.250709,0.9133333333333328,10848,-0.19665,0,1.26007326007326
396507,1706192644.265857,0.9066666666666661,10873,-0.23664999999999914,0,1.575091575091575
430167,1706192644.284015,0.8999999999999994,10887,0.40335000000000143,0,2.153846153846154
476070,1706192644.3018496,0.8933333333333326,10901,0.7433500000000013,0,2.415140415140415
517080,1706192644.3172812,0.8866666666666659,10916,-0.05664999999999942,0,2.6886446886446884
567656,1706192644.333968,0.8799999999999992,10931,-0.8066499999999994,0,2.9572649572649574
603264,1706192644.351584,0.8733333333333325,10946,-1.2566499999999987,0,3.2161172161172162
649293,1706192644.369627,0.8666666666666658,10961,-0.40664999999999907,0,3.484737484737485
701356,1706192644.3863575,0.8599999999999991,10976,-0.7866499999999998,0,3.7191697191697193
737052,1706192644.4030247,0.8533333333333324,10990,0.173350000000001,0,3.9609279609279606
785572,1706192644.4198163,0.8466666666666657,11006,-0.24664999999999893,0,4.1953601953601956
815136,1706192644.4349535,0.839999999999999,11021,0.8333500000000011,0,4.454212454212454
864963,1706192644.4506426,0.8333333333333323,11036,-0.7066499999999998,0,4.673992673992674
915697,1706192644.4673154,0.8266666666666656,11051,0.5733500000000014,0,4.893772893772893
967755,1706192644.4839764,0.8199999999999988,11066,0.4833499999999997,0,5.101343101343101
1026809,1706192644.5006182,0.8133333333333321,11081,1.0833500000000011,0,5.282051282051282
1086034,1706192644.5172834,0.8066666666666654,11096,0.6433499999999999,0.009999999999999995,5.4261294261294255
1144646,1706192644.5339546,0.7999999999999987,11111,0.20335000000000036,0.009999999999999995,5.575091575091575
1176159,1706192644.550565,0.793333333333332,11126,1.22335,0.009999999999999995,5.694749694749694
1233991,1706192644.5672972,0.7866666666666653,11140,1.55335,0.009999999999999995,5.7997557997558005
1293447,1706192644.5839982,0.7799999999999986,11155,1.2733500000000006,0.009999999999999995,5.897435897435898
1344156,1706192644.600622,0.7733333333333319,11170,0.173350000000001,0.009999999999999995,5.978021978021978
1387666,1706192644.6172745,0.7666666666666652,11185,0.5933500000000009,0.009999999999999995,6.061050061050061
1441842,1706192644.6339355,0.7599999999999985,11201,-0.34664999999999857,0.020000000000000004,6.136752136752137
1465715,1706192644.6505919,0.7533333333333317,11216,0.5133500000000009,0.020000000000000004,6.180708180708181
1521018,1706192644.667266,0.746666666666665,11231,1.1533500000000014,0.020000000000000004,6.236874236874237
1545402,1706192644.6839628,0.7399999999999983,11246,0.46335000000000015,0.020000000000000004,6.2905982905982905
1583443,1706192644.7006173,0.7333333333333316,11261,0.26335000000000086,0.020000000000000004,6.336996336996337
1609544,1706192644.7172463,0.7266666666666649,11276,-0.21664999999999957,0.020000000000000004,6.378510378510378
1639336,1706192644.7339454,0.7199999999999982,11290,0.8233500000000014,0.020000000000000004,6.415140415140415
1695290,1706192644.750569,0.7133333333333315,11305,-0.6366499999999995,0.030000000000000013,6.454212454212454
1750403,1706192644.7672281,0.7066666666666648,11320,-0.9766499999999994,0.030000000000000013,6.454212454212454
1778592,1706192644.7862933,0.6999999999999981,11335,-1.5666499999999992,0.030000000000000013,6.493284493284493
1795606,1706192644.8015816,0.6933333333333314,11351,-0.3066499999999994,0.039999999999999994,6.512820512820513
1833336,1706192644.8172529,0.6866666666666646,11366,-1.9566499999999998,0.039999999999999994,6.534798534798535
1883780,1706192644.8338997,0.6799999999999979,11381,1.22335,0.039999999999999994,6.537240537240537
1933523,1706192644.850614,0.6733333333333312,11396,-0.69665,0.05,6.571428571428571
1987905,1706192644.8672066,0.6666666666666645,11411,0.10335000000000072,0.05,6.576312576312576
2039380,1706192644.8839521,0.6599999999999978,11426,-2.24665,0.05,6.5787545787545785
2085792,1706192644.9006155,0.6533333333333311,11440,-1.9566499999999998,0.06000000000000001,6.5787545787545785
2129342,1706192644.9172132,0.6466666666666644,11455,1.5233500000000006,0.06000000000000001,6.5787545787545785
2180180,1706192644.933862,0.6399999999999977,11470,2.683350000000001,0.06999999999999999,6.581196581196581
2211761,1706192644.9504933,0.633333333333331,11485,-1.406649999999999,0.06999999999999999,6.576312576312576
2265030,1706192644.9672034,0.6266666666666643,11501,1.7833500000000004,0.08,6.5787545787545785
2318790,1706192644.9838734,0.6199999999999976,11516,0.013350000000000861,0.08,6.5787545787545785
2376211,1706192645.0004992,0.6133333333333308,11531,0.3533500000000007,0.09000000000000001,6.598290598290598
2407013,1706192645.0171714,0.6066666666666641,11546,2.22335,0.09999999999999999,6.5787545787545785
2464713,1706192645.0338697,0.5999999999999974,11561,-0.7966499999999996,0.09999999999999999,6.576312576312576
2523754,1706192645.0505078,0.5933333333333307,11576,-0.42664999999999864,0.11,6.5787545787545785
2572998,1706192645.0671785,0.586666666666664,11590,1.1633500000000012,0.12000000000000001,6.5787545787545785
2627767,1706192645.083822,0.5799999999999973,11605,-1.1066500000000001,0.12000000000000001,6.5787545787545785
2683870,1706192645.100503,0.5733333333333306,11620,-0.05664999999999942,0.13,6.576312576312576
2735795,1706192645.1171718,0.5666666666666639,11636,0.6533500000000014,0.14,6.5787545787545785
2782968,1706192645.133816,0.5599999999999972,11651,-0.046649999999999636,0.15000000000000002,6.576312576312576
2808760,1706192645.150504,0.5533333333333305,11666,-0.7166499999999996,0.15000000000000002,6.581196581196581
2863992,1706192645.167138,0.5466666666666637,11681,-0.7366499999999991,0.16000000000000003,6.5787545787545785
2889993,1706192645.1838155,0.539999999999997,11696,2.413350000000001,0.17000000000000004,6.5787545787545785
2936330,1706192645.2005038,0.5333333333333303,11711,0.4933500000000013,0.18,6.5787545787545785
2963729,1706192645.2171721,0.5266666666666636,11726,-2.3066499999999994,0.18,6.5787545787545785
3011046,1706192645.2338252,0.5199999999999969,11740,-0.08664999999999878,0.19,6.5787545787545785
3059097,1706192645.2505515,0.5133333333333302,11755,0.8533500000000007,0.2,6.5787545787545785
3106944,1706192645.2671914,0.5066666666666635,11770,-0.5666499999999992,0.21000000000000002,6.576312576312576
3157361,1706192645.2838678,0.49999999999999684,11786,-0.3666499999999999,0.22000000000000003,6.5787545787545785
3185294,1706192645.300401,0.4933333333333302,11801,0.5333500000000004,0.24,6.537240537240537
3242216,1706192645.3171227,0.4866666666666635,11816,-2.326649999999999,0.25,6.5396825396825395
3295590,1706192645.3337631,0.4799999999999969,11831,-0.1266499999999997,0.26,6.537240537240537
3324691,1706192645.3504598,0.4733333333333302,11846,-0.5066499999999987,0.27,6.52991452991453
3380551,1706192645.3671114,0.46666666666666357,11861,-0.4366500000000002,0.27,6.537240537240537
3427525,1706192645.383779,0.4599999999999969,11886,-0.7366499999999991,0.29000000000000004,6.537240537240537
3475274,1706192645.4004295,0.45333333333333026,11900,-1.2266499999999994,0.3,6.537240537240537
3523503,1706192645.4171147,0.4466666666666636,11914,0.08335000000000115,0.31,6.5396825396825395
3549786,1706192645.4336855,0.43999999999999695,11929,1.7333499999999997,0.31,6.537240537240537
3606965,1706192645.450441,0.4333333333333303,11944,0.5433500000000002,0.32,6.537240537240537
3660413,1706192645.4670825,0.42666666666666364,11959,-0.8866499999999995,0.32,6.537240537240537
3660413,1706192645.4855528,0.419999999999997,11973,-0.076649999999999,0.33,6.534798534798535
3660413,1706192645.5020337,0.41333333333333033,11988,-0.2666500000000003,0.34,6.5396825396825395
3660413,1706192645.5188186,0.4066666666666637,12003,-1.156649999999999,0.36,6.5396825396825395
3660413,1706192645.535858,0.399999999999997,12018,-0.1266499999999997,0.36,6.5396825396825395
3672137,1706192645.5518231,0.39333333333333037,12033,0.13335000000000008,0.41000000000000003,6.534798534798535
3719941,1706192645.5671053,0.3866666666666637,12049,-0.29664999999999964,0.43000000000000005,6.534798534798535
3719941,1706192645.6004322,0.37999999999999706,12064,-1.3066499999999994,0.44000000000000006,6.537240537240537
3747358,1706192645.6174533,0.3733333333333304,12079,0.5033500000000011,0.45000000000000007,6.5396825396825395
3802768,1706192645.6341348,0.36666666666666375,12094,-1.6366499999999995,0.45999999999999996,6.537240537240537
3850676,1706192645.6509883,0.3599999999999971,12108,-0.41664999999999885,0.47,6.5396825396825395
3877373,1706192645.6674714,0.35333333333333045,12124,-1.1066500000000001,0.48,6.537240537240537
3904335,1706192645.6836677,0.3466666666666638,12139,-0.09664999999999857,0.48,6.537240537240537
3924498,1706192645.7007844,0.33999999999999714,12154,-0.08664999999999878,0.49,6.5396825396825395
3964971,1706192645.7177129,0.3333333333333305,12169,-2.366649999999999,0.5,6.542124542124542
3988505,1706192645.7341774,0.32666666666666383,12184,-1.11665,0.5,6.537240537240537
4014563,1706192645.7507427,0.3199999999999972,12199,-0.94665,0.51,6.5396825396825395
4064660,1706192645.767598,0.3133333333333305,12213,-0.3766499999999997,0.52,6.534798534798535
4102149,1706192645.7836626,0.30666666666666387,12229,1.3133499999999998,0.52,6.537240537240537
4147648,1706192645.8010366,0.2999999999999972,12244,-0.5666499999999992,0.53,6.5396825396825395
4192053,1706192645.817708,0.29333333333333056,12259,-0.28664999999999985,0.53,6.534798534798535
4217725,1706192645.8341103,0.2866666666666639,12273,-2.0566499999999994,0.55,6.503052503052503
4257743,1706192645.8508368,0.27999999999999725,12288,-0.5166500000000003,0.56,6.537240537240537
4305257,1706192645.867446,0.2733333333333306,12303,-1.5166500000000003,0.5700000000000001,6.537240537240537
4329183,1706192645.8840456,0.26666666666666394,12318,0.10335000000000072,0.59,6.537240537240537
4354764,1706192645.9006965,0.2599999999999973,12333,1.3933499999999999,0.59,6.542124542124542
4403919,1706192645.917355,0.25333333333333063,12348,-2.0966499999999995,0.61,6.537240537240537
4453198,1706192645.9340413,0.24666666666666398,12363,-0.19665,0.62,6.537240537240537
4503740,1706192645.9506912,0.23999999999999733,12378,1.7633500000000009,0.63,6.498168498168498
4546778,1706192645.96736,0.23333333333333067,12394,-0.4966499999999989,0.64,6.500610500610501
4571443,1706192645.984209,0.22666666666666402,12409,1.1833500000000008,0.66,6.498168498168498
4618583,1706192646.0007236,0.21999999999999736,12423,-0.28664999999999985,0.67,6.498168498168498
4666877,1706192646.017333,0.2133333333333307,12438,0.16335000000000122,0.7000000000000001,6.500610500610501
4715472,1706192646.0340066,0.20666666666666406,12453,1.1133500000000005,0.72,6.498168498168498
4738510,1706192646.0506904,0.1999999999999974,12468,0.5133500000000009,0.72,6.498168498168498
4762898,1706192646.0667303,0.19333333333333075,12483,1.88335,0.75,6.503052503052503
4814182,1706192646.0840085,0.1866666666666641,12498,-0.10665000000000013,0.76,6.5225885225885225
4840477,1706192646.1006632,0.17999999999999744,12513,1.1133500000000005,0.78,6.532356532356532
4889785,1706192646.1173453,0.17333333333333079,12528,-1.246649999999999,0.79,6.5396825396825395
4937834,1706192646.1339726,0.16666666666666413,12544,1.63335,0.79,6.534798534798535
4989635,1706192646.1506867,0.15999999999999748,12559,0.4433500000000006,0.8,6.537240537240537
5034029,1706192646.1673083,0.15333333333333082,12573,0.923350000000001,0.81,6.5396825396825395
5081159,1706192646.1839695,0.14666666666666417,12588,-2.236649999999999,0.8200000000000001,6.537240537240537
5101307,1706192646.200266,0.13999999999999752,12603,0.32335000000000136,0.83,6.537240537240537
5141278,1706192646.217553,0.13333333333333086,12618,1.1233500000000003,0.84,6.5396825396825395
5187014,1706192646.234118,0.1266666666666642,12633,-0.9666499999999996,0.86,6.5396825396825395
5214681,1706192646.250147,0.11999999999999754,12648,-0.3866499999999995,0.86,6.5396825396825395
5245896,1706192646.2674322,0.11333333333333087,12664,-0.1366499999999995,0.88,6.52991452991453
5297586,1706192646.2841096,0.1066666666666642,12679,0.19335000000000058,0.89,6.500610500610501
5332397,1706192646.3001533,0.09999999999999754,12694,-1.8466499999999995,0.91,6.495726495726496
5390425,1706192646.3184505,0.09333333333333087,12709,0.15335000000000143,0.91,6.500610500610501
5443133,1706192646.3350697,0.0866666666666642,12723,1.5833500000000011,0.93,6.498168498168498
5474595,1706192646.351948,0.07999999999999753,12738,1.6833500000000008,0.9400000000000001,6.498168498168498
5504508,1706192646.3678575,0.07333333333333086,12753,-0.2566499999999987,0.9600000000000001,6.498168498168498
5530138,1706192646.3835356,0.0666666666666642,12768,-1.3866499999999995,0.9700000000000001,6.495726495726496
5584399,1706192646.4017372,0.05999999999999753,12783,0.8333500000000011,0.9900000000000001,6.498168498168498
5639356,1706192646.4184437,0.05333333333333086,12798,-1.8966499999999993,1.0,6.498168498168498
5685290,1706192646.4351323,0.04666666666666419,12814,-1.69665,1.0199999999999998,6.498168498168498
5710515,1706192646.4501386,0.039999999999997524,12829,-0.6166499999999999,1.0299999999999998,6.498168498168498
5737069,1706192646.466792,0.033333333333330856,12844,-2.70665,1.0699999999999998,6.498168498168498
5791194,1706192646.483489,0.026666666666664188,12859,1.1033500000000007,1.0899999999999999,6.495726495726496
5840362,1706192646.5001376,0.01999999999999752,12873,-1.4866499999999991,1.0999999999999999,6.498168498168498
5891667,1706192646.516796,0.013333333333330852,12899,1.6533500000000014,1.1199999999999999,6.493284493284493
5942764,1706192646.5334697,0.006666666666664185,12912,0.9133500000000012,1.13,6.500610500610501
5988685,1706192646.5501285,0,12927,-1.1266499999999997,1.16,6.495726495726496
6036762,1706192646.5667763,0,12941,-0.6666499999999989,1.17,6.495726495726496
6084391,1706192646.5834754,0,12956,1.0133500000000009,1.17,6.495726495726496
6112298,1706192646.600118,0,12971,1.1033500000000007,1.18,6.498168498168498
6158811,1706192646.616781,0,12986,0.33335000000000115,1.2,6.498168498168498
6216815,1706192646.6351275,0,13001,-1.2866499999999998,1.21,6.498168498168498
6260075,1706192646.651125,0,13017,0.27335000000000065,1.23,6.500610500610501
6305932,1706192646.6667852,0,13032,0.15335000000000143,1.24,6.498168498168498
6336108,1706192646.6850328,0,13047,0.5433500000000002,1.26,6.495726495726496
6376194,1706192646.7001097,0,13062,-0.5166500000000003,1.2699999999999998,6.488400488400488
6407318,1706192646.7183502,0,13077,0.12335000000000029,1.39,6.495726495726496
6452963,1706192646.7356954,0,13092,-0.42664999999999864,1.41,6.498168498168498
6494602,1706192646.751183,0,13106,-0.6866500000000002,1.42,6.493284493284493
6545078,1706192646.7690072,0,13121,1.1533500000000014,1.43,6.495726495726496
6565488,1706192646.7844453,0,13136,0.7933500000000002,1.45,6.498168498168498
6599499,1706192646.800129,0,13151,-0.44665,1.46,6.495726495726496
6639997,1706192646.818478,0,13166,0.22334999999999994,1.47,6.498168498168498
6676264,1706192646.8344789,0,13182,-0.1366499999999995,1.48,6.456654456654457
6728436,1706192646.8522193,0,13197,-1.0566499999999994,1.49,6.415140415140415
6773986,1706192646.8683271,0,13212,-0.5666499999999992,1.5,6.361416361416361
6796532,1706192646.8834615,0,13227,1.4633500000000002,1.5199999999999998,6.305250305250305
6849873,1706192646.901588,0,13242,2.29335,1.5299999999999998,6.224664224664225
6876748,1706192646.918797,0,13256,-1.44665,1.5399999999999998,6.146520146520147
6921385,1706192646.9349942,0,13272,-3.2266499999999994,1.5499999999999998,6.100122100122101
6971519,1706192646.9517,0,13287,1.6633500000000012,1.5699999999999998,6.061050061050061
6990865,1706192646.9667068,0,13302,-0.7666500000000003,1.5799999999999998,5.987789987789988
7015631,1706192646.9833753,0,13317,-5.00665,1.5899999999999999,5.9072039072039075
7037808,1706192647.0000443,0,13332,-0.48664999999999914,1.5999999999999999,5.824175824175825
7098094,1706192647.0183094,0,13347,0.6433499999999999,1.5999999999999999,5.719169719169718
7118986,1706192647.0333729,0,13362,-2.076649999999999,1.6099999999999999,5.631257631257631
7146484,1706192647.0516193,0,13377,-0.9566499999999998,1.63,5.487179487179487
7188893,1706192647.0666914,0,13391,-5.29665,1.65,5.389499389499389
7244049,1706192647.0849733,0,13407,-2.2666499999999994,1.66,5.2625152625152625
7266328,1706192647.0999749,0,13422,-3.5166499999999994,1.68,5.111111111111111
7293553,1706192647.1166415,0,13437,-3.0466499999999996,1.69,5.001221001221001
7339354,1706192647.133315,0,13452,-3.4166499999999997,1.71,4.9352869352869355
7390840,1706192647.1499825,0,13467,-2.45665,1.72,4.8498168498168495
7416551,1706192647.166639,0,13482,-1.4166499999999989,1.74,4.774114774114774
7448687,1706192647.1832762,0,13497,-1.0466499999999996,1.75,4.681318681318682
7479253,1706192647.200014,0,13512,-1.9266499999999995,1.8099999999999998,4.598290598290598
7529964,1706192647.218248,0,13527,-1.9866499999999991,1.8299999999999998,4.478632478632479
7556051,1706192647.2355258,0,13541,-0.076649999999999,1.8399999999999999,4.371184371184372
7593127,1706192647.2510464,0,13556,1.843350000000001,1.8499999999999999,4.315018315018316
7642008,1706192647.2682726,0,13571,4.153350000000001,1.8599999999999999,4.253968253968254
7661956,1706192647.2833335,0,13586,1.6633500000000012,1.88,4.239316239316239
7684159,1706192647.2999945,0,13601,3.8533500000000007,1.91,4.266178266178266
7730212,1706192647.3166633,0,13616,0.423350000000001,1.9599999999999997,4.273504273504273
7753671,1706192647.3333027,0,13631,0.26335000000000086,1.95,4.273504273504273
7802155,1706192647.3499815,0,13647,0.3533500000000007,1.91,4.275946275946276
7845361,1706192647.3666594,0,13662,-3.03665,1.89,4.278388278388278
7874829,1706192647.3848302,0,13677,-1.3366499999999988,1.89,4.239316239316239
7897879,1706192647.3999088,0,13692,0.16335000000000122,1.89,4.2344322344322345
7948632,1706192647.416587,0,13706,0.6033500000000007,1.89,4.197802197802198
7957233,1706192647.4332728,0,13722,0.30335,1.8999999999999997,4.139194139194139
8003310,1706192647.4499125,0,13737,1.8133499999999998,1.89,4.075702075702075
8052101,1706192647.4665864,0,13752,-0.19665,1.89,4.021978021978022
8110465,1706192647.4854147,0,13767,0.2533500000000011,1.8699999999999999,3.9609279609279606
8149384,1706192647.5009253,0,13782,0.5133500000000009,1.8699999999999999,3.9194139194139193
8171019,1706192647.5165803,0,13797,-1.496649999999999,1.8699999999999999,3.8827838827838828
8200562,1706192647.5347693,0,13812,-1.7666500000000003,1.8699999999999999,3.8412698412698414
8222987,1706192647.5499036,0,13827,-0.9666499999999996,1.8699999999999999,3.772893772893773
8251773,1706192647.5681605,0,13841,-0.7066499999999998,1.8699999999999999,3.728937728937729
8291595,1706192647.5832217,0,13856,-0.026650000000000063,1.8699999999999999,3.6874236874236876
8314285,1706192647.599867,0,13871,-0.3966499999999993,1.8699999999999999,3.6800976800976803
